10.0944817, 5564.025689804599
10.252045092, 6171.392667077597
10.409608484, 5764.745499534791
10.567171876, 5550.51266681363
10.724735268, 5300.6016232451675
10.882298661, 5051.406206677276
11.039862053, 5453.502280007116
11.197425445, 5457.081025985827
11.354988837, 4504.067466040775
11.512552229, 4279.390909936867
11.670115621, 4879.017380614353
11.827679013, 4671.703751249211
11.985242405, 4246.107555219487
12.142805797, 4563.258364684556
12.30036919, 4372.939826756941
12.457932582, 3612.7500892651574
12.615495974, 3892.921390652694
12.773059366, 4598.995717611261
12.930622758, 4225.225252619396
13.08818615, 3571.6463144179475
13.245749542, 3629.4578512093913
13.403312934, 3860.2172684015895
13.560876326, 3886.09984087347
13.718439719, 3759.426680710023
13.876003111, 3507.3663594674044
14.033566503, 3531.5178959682444
14.191129895, 3692.644336245917
14.348693287, 3315.7426161303133
14.506256679, 3003.591165371491
14.663820071, 3493.170632285726
14.821383463, 3727.487739438749
14.978946855, 3118.69343059976
15.136510248, 2854.523145203204
15.29407364, 3222.150850072217
15.451637032, 3305.3161924107108
15.609200424, 3143.8428400145885
15.766763816, 3155.3237835384743
15.924327208, 3096.5579680171936
16.0818906, 2973.184349001593
16.239453992, 2978.3486897660314
16.397017384, 2942.7663168543672
16.554580777, 2956.568981945169
16.712144169, 3123.281296653766
16.869707561, 3049.449711132554
17.027270953, 2768.3363094685674
17.184834345, 2716.38436376043
17.342397737, 2786.942435911582
17.499961129, 2883.4527621024786
17.657524521, 3084.9422544791646
17.815087913, 2955.9667959566477
17.972651306, 2570.777900285914
18.130214698, 2711.7046939842517
18.28777809, 2994.065826923298
18.445341482, 2919.405538259815
18.602904874, 3759.0779512538948
18.760468266, 5553.13655649115
18.918031658, 5732.261343338468
19.07559505, 3941.484820475595
19.233158442, 2923.4772450210953
19.390721835, 3233.2747646609105
19.548285227, 3048.7581433973105
19.705848619, 2457.943557453121
19.863412011, 2644.649647326583
20.020975403, 3072.745306339196
20.178538795, 2941.1746556253515
20.336102187, 2690.906770799553
20.493665579, 2711.954984677921
20.651228971, 2826.167103583084
20.808792364, 2905.6606541176766
20.966355756, 2861.057658246225
21.123919148, 2741.028458108895
21.28148254, 2803.6652667467806
21.439045932, 2964.686669195466
21.596609324, 2920.78492634733
21.754172716, 2783.149113892934
21.911736108, 2786.395833867827
22.0692995, 2877.0319729437306
22.226862893, 2989.3533043881216
22.384426285, 3092.098674255854
22.541989677, 3051.8692232445014
22.699553069, 2899.54000975515
22.857116461, 2856.751391305963
23.014679853, 2933.58079730285
23.172243245, 2918.5556830055466
23.329806637, 2800.3765659094847
23.487370029, 2803.4687781497173
23.644933422, 2871.848155165509
23.802496814, 2674.366549902297
23.960060206, 2454.34723249928
24.117623598, 2839.21731859633
24.27518699, 3409.107516031539
24.432750382, 3157.407575321928
24.590313774, 2494.67243099568
24.747877166, 2534.851866225412
24.905440558, 2915.792020180597
25.063003951, 2756.6942442293803
25.220567343, 2469.1887697962247
25.378130735, 2562.6925647663174
25.535694127, 2574.9596925824317
25.693257519, 2414.2617599610135
25.850820911, 2590.266793013381
26.008384303, 2842.567079768394
26.165947695, 2584.474365004788
26.323511087, 2248.1149306054617
26.48107448, 2486.4261564820818
26.638637872, 2843.4637932520086
26.796201264, 2623.3398841806315
26.953764656, 2242.465542922948
27.111328048, 2400.9774122140657
27.26889144, 2715.5927160958604
27.426454832, 2562.19722831663
27.584018224, 2331.8714442554515
27.741581616, 2467.189393085263
27.899145009, 2562.854738421137
28.056708401, 2471.017352180862
28.214271793, 2567.496426809816
28.371835185, 2622.5281057217944
28.529398577, 2314.2766695345604
28.686961969, 2202.827900546335
28.844525361, 2584.4513184408
29.002088753, 2790.9790444887094
29.159652145, 2504.380385987958
29.317215538, 2214.3455354552802
29.47477893, 2311.137342227315
29.632342322, 2662.845802449122
29.789905714, 2750.347118464865
29.947469106, 2393.208662985811
30.105032498, 2299.9662884559993
30.26259589, 2704.715325309682
30.420159282, 2658.714400841468
30.577722675, 2171.3181054103734
30.735286067, 2387.618518174115
30.892849459, 2899.634985247673
31.050412851, 2579.839429234841
31.207976243, 2197.486736814142
31.365539635, 2552.0853408083385
31.523103027, 2707.9914967921
31.680666419, 2421.396801047241
31.838229811, 2513.1027036720475
31.995793204, 2678.4317385052773
32.153356596, 2494.460648600455
32.310919988, 2560.315035352752
32.46848338, 2701.419314580926
32.626046772, 2353.019239052655
32.783610164, 2265.3346500923376
32.941173556, 2732.077379122934
33.098736948, 2741.261172682574
33.25630034, 2390.5556976738762
33.413863733, 2528.3758944620245
33.571427125, 2698.3048360268476
33.728990517, 2531.209333644763
33.886553909, 2672.5743240422744
34.044117301, 2934.9475592150825
34.201680693, 2663.1009855460147
34.359244085, 2369.940433687473
34.516807477, 2581.933774193856
34.674370869, 2854.642970471504
34.831934262, 2857.511116695087
34.989497654, 2674.2758034385583
35.147061046, 2489.582799698237
35.304624438, 2634.2230572043923
35.46218783, 2982.131081797185
35.619751222, 2994.1189876558
35.777314614, 2746.9765889222117
35.934878006, 2636.2987686021665
36.092441398, 2752.6386800775626
36.250004791, 3083.563976289521
36.407568183, 3140.10620530672
36.565131575, 2864.4952754647697
36.722694967, 4106.223703045649
36.880258359, 7188.321637976164
37.037821751, 8237.488622940271
37.195385143, 5500.85624581681
37.352948535, 3009.114484683717
37.510511927, 3114.0975240943203
37.66807532, 3452.7571985319973
37.825638712, 3251.703900084324
37.983202104, 3565.063633013611
38.140765496, 3432.351618038119
38.298328888, 3133.427270341577
38.45589228, 4945.69738318574
38.613455672, 7169.724784946905
38.771019064, 6197.77127703413
38.928582456, 3595.2198080349376
39.086145849, 2741.829642114951
39.243709241, 3055.8085610792205
39.401272633, 3122.84836985141
39.558836025, 3274.711539353866
39.716399417, 3275.6802896362833
39.873962809, 2804.8431632335696
40.031526201, 2706.2434689869056
40.189089593, 3062.2294206466295
40.346652985, 3142.141246723466
40.504216378, 3089.0213688661993
40.66177977, 3088.0228455927963
40.819343162, 2869.6789817748404
40.976906554, 2764.494942271365
41.134469946, 3075.9048213208985
41.292033338, 3374.324845149015
41.44959673, 3347.389207070401
41.607160122, 3001.611187784501
41.764723514, 2686.4901391080202
41.922286907, 3063.5113964912134
42.079850299, 3670.445153632046
42.237413691, 3423.686544008349
42.394977083, 3024.139226904186
42.552540475, 3372.437549211618
42.710103867, 3385.5042590191483
42.867667259, 2834.7410832873557
43.025230651, 3097.1071014138683
43.182794043, 3663.914406984271
43.340357436, 3354.8465249022215
43.497920828, 3181.2133425398993
43.65548422, 3602.9218518838766
43.813047612, 3587.469617681496
43.970611004, 3521.2852975991837
44.128174396, 3793.369281216827
44.285737788, 4017.057296162813
44.44330118, 6586.759264352851
44.600864572, 12806.51430938681
44.758427965, 16643.077345317677
44.915991357, 12976.474494929349
45.073554749, 6637.288358829876
45.231118141, 3831.15252911232
45.388681533, 3546.661039263031
45.546244925, 3316.06513666738
45.703808317, 3425.3916585996094
45.861371709, 3630.0516482949542
46.018935101, 3383.895847542171
46.176498494, 3394.615961766265
46.334061886, 3515.4613362491846
46.491625278, 3085.336441533035
46.64918867, 2929.406799045627
46.806752062, 3508.011590036011
46.964315454, 3819.408862778823
47.121878846, 3543.328137208511
47.279442238, 3262.823869050981
47.43700563, 3201.63630386017
47.594569023, 3342.712562499946
47.752132415, 3471.7709692071744
47.909695807, 3405.940185664359
48.067259199, 3497.5897411502237
48.224822591, 3597.341284620385
48.382385983, 3219.5085747113694
48.539949375, 3368.460896433891
48.697512767, 4728.158020141708
48.855076159, 5482.179915102382
49.012639552, 4659.946997303235
49.170202944, 3842.330405043874
49.327766336, 3581.369251111357
49.485329728, 3352.8961171745536
49.64289312, 4017.87444977472
