10.0944817, 6096.000000000002
10.252045092, 5908.999999999999
10.409608484, 5758.999999999998
10.567171876, 5772.999999999999
10.724735268, 5476.999999999998
10.882298661, 5261.000000000001
11.039862053, 5225.000000000002
11.197425445, 5047.999999999999
11.354988837, 5005.999999999999
11.512552229, 4844.0
11.670115621, 4594.000000000002
11.827679013, 4498.000000000001
11.985242405, 4456.0
12.142805797, 4371.999999999999
12.300369189, 4179.999999999999
12.457932582, 4308.999999999999
12.615495974, 4143.000000000001
12.773059366, 4051.0
12.930622758, 3937.0
13.08818615, 3872.0
13.245749542, 3831.0
13.403312934, 3839.000000000001
13.560876326, 3633.0
13.718439718, 3642.000000000001
13.87600311, 3463.000000000001
14.033566503, 3478.000000000001
14.191129895, 3326.0
14.348693287, 3363.0
14.506256679, 3449.9999999999986
14.663820071, 3326.9999999999986
14.821383463, 3284.999999999999
14.978946855, 3416.999999999999
15.136510247, 3130.9999999999977
15.294073639, 3058.9999999999986
15.451637032, 3105.9999999999995
15.609200424, 3098.999999999999
15.766763816, 3130.999999999999
15.924327208, 3113.9999999999995
16.0818906, 3054.0
16.239453992, 2899.0
16.397017384, 2919.0
16.554580776, 2954.999999999999
16.712144168, 2916.000000000001
16.86970756, 2823.000000000001
17.027270953, 2759.0000000000005
17.184834345, 2881.9999999999995
17.342397737, 2846.0000000000005
17.499961129, 2972.0000000000014
17.657524521, 2794.0000000000027
17.815087913, 2896.0
17.972651305, 2819.000000000001
18.130214697, 2914.0
18.287778089, 2910.999999999999
18.445341481, 3063.999999999999
18.602904874, 4057.0
18.760468266, 6105.000000000001
18.918031658, 5404.0
19.07559505, 3442.0
19.233158442, 3032.000000000001
19.390721834, 2840.9999999999986
19.548285226, 2802.0
19.705848618, 2761.000000000001
19.86341201, 2795.0
20.020975403, 2666.000000000001
20.178538795, 2858.9999999999995
20.336102187, 2758.9999999999995
20.493665579, 2737.999999999999
20.651228971, 2867.9999999999986
20.808792363, 2715.9999999999995
20.966355755, 2786.000000000001
21.123919147, 2726.0000000000014
21.281482539, 2756.0000000000014
21.439045931, 2836.000000000001
21.596609324, 2804.9999999999995
21.754172716, 2739.9999999999995
21.911736108, 2830.999999999999
22.0692995, 2882.999999999999
22.226862892, 2710.000000000001
22.384426284, 2876.0
22.541989676, 3155.999999999998
22.699553068, 3033.9999999999995
22.85711646, 2680.9999999999986
23.014679853, 2777.999999999999
23.172243245, 2807.000000000001
23.329806637, 2799.000000000001
23.487370029, 2752.9999999999995
23.644933421, 2649.0000000000005
23.802496813, 2746.000000000001
23.960060205, 2673.0
24.117623597, 2744.999999999999
24.275186989, 3096.000000000001
24.432750381, 3154.999999999999
24.590313774, 2653.000000000001
24.747877166, 2610.000000000001
24.905440558, 2629.0000000000023
25.06300395, 2626.0000000000014
25.220567342, 2508.000000000001
25.378130734, 2544.0000000000014
25.535694126, 2564.0
25.693257518, 2563.000000000001
25.85082091, 2603.9999999999995
26.008384302, 2539.0
26.165947695, 2646.000000000001
26.323511087, 2457.0
26.481074479, 2520.999999999999
26.638637871, 2620.000000000001
26.796201263, 2589.999999999999
26.953764655, 2470.000000000001
27.111328047, 2495.9999999999986
27.268891439, 2393.999999999998
27.426454831, 2426.0
27.584018224, 2396.000000000001
27.741581616, 2518.999999999999
27.899145008, 2528.0
28.0567084, 2466.0
28.214271792, 2487.0
28.371835184, 2442.999999999999
28.529398576, 2395.0000000000014
28.686961968, 2438.9999999999995
28.84452536, 2431.000000000001
29.002088752, 2412.0000000000005
29.159652145, 2396.999999999999
29.317215537, 2511.000000000001
29.474778929, 2520.999999999999
29.632342321, 2423.0
29.789905713, 2433.000000000001
29.947469105, 2473.999999999999
30.105032497, 2390.0
30.262595889, 2395.0000000000005
30.420159281, 2477.999999999999
30.577722673, 2487.9999999999995
30.735286066, 2497.0
30.892849458, 2456.000000000001
31.05041285, 2443.999999999999
31.207976242, 2466.000000000001
31.365539634, 2523.0000000000005
31.523103026, 2617.000000000001
31.680666418, 2434.000000000001
31.83822981, 2517.9999999999995
31.995793202, 2577.0000000000005
32.153356595, 2614.0
32.310919987, 2641.0000000000014
32.468483379, 2572.0
32.626046771, 2634.000000000001
32.783610163, 2698.9999999999995
32.941173555, 2578.9999999999995
33.098736947, 2667.000000000001
33.256300339, 2622.0
33.413863731, 2561.0
33.571427123, 2672.000000000001
33.728990516, 2648.000000000001
33.886553908, 2633.000000000001
34.0441173, 2678.0000000000005
34.201680692, 2600.999999999999
34.359244084, 2712.0
34.516807476, 2550.9999999999995
34.674370868, 2648.999999999999
34.83193426, 2579.0000000000005
34.989497652, 2662.9999999999995
35.147061044, 2741.9999999999995
35.304624437, 2702.9999999999977
35.462187829, 2815.9999999999986
35.619751221, 2730.0
35.777314613, 2774.0
35.934878005, 2714.0
36.092441397, 2835.000000000001
36.250004789, 2850.0
36.407568181, 3034.999999999999
36.565131573, 3218.999999999999
36.722694966, 3667.0
36.880258358, 4997.0
37.03782175, 6930.999999999998
37.195385142, 7159.999999999998
37.352948534, 4741.0
37.510511926, 3585.9999999999977
37.668075318, 3366.0
37.82563871, 3446.0
37.983202102, 3420.000000000001
38.140765494, 3477.0
38.298328887, 3400.000000000001
38.455892279, 3730.0
38.613455671, 6589.0
38.771019063, 6499.0
38.928582455, 3817.0
39.086145847, 3207.000000000001
39.243709239, 3025.000000000001
39.401272631, 3006.000000000002
39.558836023, 3082.0000000000005
39.716399415, 2954.000000000001
39.873962808, 2974.0
40.0315262, 3079.000000000001
40.189089592, 2988.000000000001
40.346652984, 3002.000000000001
40.504216376, 3034.9999999999995
40.661779768, 3086.999999999999
40.81934316, 2950.000000000001
40.976906552, 3039.0
41.134469944, 3035.0
41.292033337, 3037.9999999999995
41.449596729, 3025.000000000001
41.607160121, 3104.000000000001
41.764723513, 2992.9999999999995
41.922286905, 3123.999999999999
42.079850297, 3193.999999999999
42.237413689, 3530.0
42.394977081, 3290.0
42.552540473, 3178.9999999999995
42.710103865, 3155.9999999999995
42.867667258, 3123.9999999999986
43.02523065, 3198.0
43.182794042, 3286.000000000001
43.340357434, 3349.000000000001
43.497920826, 3351.000000000001
43.655484218, 3516.000000000001
43.81304761, 3603.0
43.970611002, 3475.999999999999
44.128174394, 3718.999999999999
44.285737786, 4212.999999999999
44.443301179, 5296.0
44.600864571, 10024.999999999998
44.758427963, 16121.0
44.915991355, 14648.999999999996
45.073554747, 7884.0
45.231118139, 4613.999999999998
45.388681531, 3758.0
45.546244923, 3584.0
45.703808315, 3349.0000000000014
45.861371708, 3501.0
46.0189351, 3384.0
46.176498492, 3312.0
46.334061884, 3336.000000000001
46.491625276, 3467.0
46.649188668, 3267.000000000001
46.80675206, 3359.0
46.964315452, 3381.000000000001
47.121878844, 3532.0000000000027
47.279442236, 3493.000000000001
47.437005629, 3430.0
47.594569021, 3340.999999999999
47.752132413, 3331.000000000001
47.909695805, 3401.0
48.067259197, 3433.0000000000014
48.224822589, 3432.0000000000014
48.382385981, 3571.000000000001
48.539949373, 3624.000000000001
48.697512765, 4046.000000000001
48.855076158, 4782.999999999998
49.01263955, 4969.0
49.170202942, 3936.000000000001
49.327766334, 3655.999999999999
49.485329726, 3636.999999999999
49.642893118, 3479.000000000001
49.80045651, 3467.000000000001
49.958019902, 3456.999999999999
50.115583294, 3461.999999999999
50.273146686, 3454.0
50.430710079, 3445.0
50.588273471, 3373.999999999999
50.745836863, 3393.0000000000014
50.903400255, 3508.000000000001
51.060963647, 3459.000000000001
51.218527039, 3507.0000000000014
51.376090431, 3375.0
51.533653823, 3443.0
51.691217215, 3445.9999999999986
51.848780607, 3649.999999999999
52.006344, 3549.000000000001
52.163907392, 3508.999999999999
52.321470784, 3504.999999999999
52.479034176, 3467.0
52.636597568, 3528.9999999999986
52.79416096, 3426.999999999999
52.951724352, 3449.0000000000014
53.109287744, 3536.0
53.266851136, 3467.0
53.424414529, 3612.000000000001
53.581977921, 3550.0
53.739541313, 3614.0000000000014
53.897104705, 3389.0000000000014
54.054668097, 3598.0
54.212231489, 3590.0
54.369794881, 3599.0000000000014
54.527358273, 3537.0000000000014
54.684921665, 3587.999999999999
54.842485057, 3549.999999999999
55.00004845, 3586.0
55.157611842, 3594.000000000001
55.315175234, 3674.000000000001
55.472738626, 3653.000000000001
55.630302018, 3559.000000000001
55.78786541, 3594.000000000001
55.945428802, 3582.0000000000014
56.102992194, 3690.0
56.260555586, 3627.0000000000014
56.418118978, 3691.999999999999
56.575682371, 3624.999999999999
56.733245763, 3695.9999999999986
56.890809155, 3601.9999999999986
57.048372547, 3736.0
57.205935939, 3717.0
57.363499331, 3741.999999999999
57.521062723, 3706.9999999999986
57.678626115, 3738.9999999999986
57.836189507, 3836.000000000001
57.9937529, 3824.000000000001
58.151316292, 3956.000000000001
58.308879684, 4085.0
58.466443076, 4303.0
58.624006468, 5014.000000000001
58.78156986, 5487.999999999998
58.939133252, 5844.999999999999
59.096696644, 5204.999999999999
59.254260036, 4461.000000000001
59.411823428, 4169.0
59.569386821, 3817.0
59.726950213, 4016.999999999999
59.884513605, 3893.000000000001
60.042076997, 3727.000000000001
60.199640389, 3872.0
60.357203781, 3764.0
60.514767173, 3747.0
60.672330565, 3861.0
60.829893957, 3822.999999999999
60.987457349, 3805.999999999999
61.145020742, 3748.0
61.302584134, 3789.0000000000014
61.460147526, 3829.000000000001
61.617710918, 3879.0000000000014
61.77527431, 3838.000000000001
