10.0944817, 6038.999999999999
10.252045092, 5878.0
10.409608484, 5736.999999999999
10.567171876, 5561.0
10.724735268, 5505.999999999998
10.882298661, 5295.0
11.039862053, 5066.0
11.197425445, 5087.999999999999
11.354988837, 4783.000000000001
11.512552229, 4735.999999999999
11.670115621, 4667.0
11.827679013, 4500.0
11.985242405, 4399.000000000001
12.142805797, 4240.0
12.30036919, 4268.0
12.457932582, 4243.0
12.615495974, 4029.0
12.773059366, 4051.999999999999
12.930622758, 3949.0000000000005
13.08818615, 3877.9999999999995
13.245749542, 3924.000000000001
13.403312934, 3777.0
13.560876326, 3742.0000000000005
13.718439719, 3686.9999999999995
13.876003111, 3611.0
14.033566503, 3521.9999999999995
14.191129895, 3532.0
14.348693287, 3463.9999999999995
14.506256679, 3300.9999999999995
14.663820071, 3295.0
14.821383463, 3337.0
14.978946855, 3244.0
15.136510248, 3230.0000000000005
15.29407364, 3107.0
15.451637032, 3197.0
15.609200424, 3194.9999999999995
15.766763816, 3061.9999999999995
15.924327208, 3067.999999999999
16.0818906, 3075.9999999999995
16.239453992, 3006.0
16.397017384, 2973.0
16.554580777, 2949.000000000001
16.712144169, 3022.000000000001
16.869707561, 2958.0
17.027270953, 2818.9999999999995
17.184834345, 2882.0
17.342397737, 2841.0
17.499961129, 2851.9999999999995
17.657524521, 2851.0
17.815087913, 2837.0
17.972651306, 2844.0
18.130214698, 2866.0
18.28777809, 2838.0000000000005
18.445341482, 3088.0
18.602904874, 3365.9999999999995
18.760468266, 5296.0
18.918031658, 6594.0
19.07559505, 3565.0
19.233158442, 3074.0000000000005
19.390721835, 2958.9999999999995
19.548285227, 2777.0
19.705848619, 2930.0000000000005
19.863412011, 2748.0000000000005
20.020975403, 2906.9999999999995
20.178538795, 2777.999999999999
20.336102187, 2775.0
20.493665579, 2745.0
20.651228971, 2881.9999999999995
20.808792364, 2825.0
20.966355756, 2831.0000000000005
21.123919148, 2876.0
21.28148254, 2807.0
21.439045932, 2804.0
21.596609324, 2918.0
21.754172716, 2846.0
21.911736108, 2856.999999999999
22.0692995, 2933.0
22.226862893, 2899.0
22.384426285, 2987.0
22.541989677, 2998.0
22.699553069, 3102.0
22.857116461, 2941.0000000000005
23.014679853, 2769.0
23.172243245, 2892.0
23.329806637, 2836.0
23.487370029, 2799.9999999999995
23.644933422, 2850.0000000000005
23.802496814, 2661.0
23.960060206, 2685.0
24.117623598, 2748.0
24.27518699, 3125.0000000000005
24.432750382, 3198.0
24.590313774, 2715.0
24.747877166, 2709.0
24.905440558, 2660.0000000000005
25.063003951, 2615.0
25.220567343, 2592.0
25.378130735, 2628.0
25.535694127, 2539.000000000001
25.693257519, 2493.000000000001
25.850820911, 2611.0000000000005
26.008384303, 2618.0
26.165947695, 2522.0000000000005
26.323511087, 2610.0
26.48107448, 2493.000000000001
26.638637872, 2563.0000000000005
26.796201264, 2532.0
26.953764656, 2490.0
27.111328048, 2557.0
27.26889144, 2482.000000000001
27.426454832, 2396.0
27.584018224, 2552.0
27.741581616, 2495.0
27.899145009, 2538.9999999999995
28.056708401, 2490.9999999999995
28.214271793, 2487.0
28.371835185, 2496.9999999999995
28.529398577, 2422.9999999999995
28.686961969, 2465.0000000000005
28.844525361, 2453.0
29.002088753, 2576.0
29.159652145, 2449.0
29.317215538, 2459.0
29.47477893, 2429.0
29.632342322, 2535.0000000000005
29.789905714, 2477.0000000000005
29.947469106, 2586.0
30.105032498, 2565.0
30.26259589, 2408.0000000000005
30.420159282, 2521.0000000000005
30.577722675, 2453.0
30.735286067, 2525.0
30.892849459, 2557.0
31.050412851, 2520.0
31.207976243, 2522.0
31.365539635, 2489.000000000001
31.523103027, 2515.0
31.680666419, 2551.0
31.838229811, 2549.0000000000005
31.995793204, 2579.0000000000005
32.153356596, 2574.0
32.310919988, 2578.0000000000005
32.46848338, 2474.0
32.626046772, 2570.0000000000005
32.783610164, 2407.0
32.941173556, 2600.000000000001
33.098736948, 2429.0
33.25630034, 2679.0
33.413863733, 2591.0
33.571427125, 2567.0000000000005
33.728990517, 2717.9999999999995
33.886553909, 2580.0
34.044117301, 2677.9999999999995
34.201680693, 2694.9999999999995
34.359244085, 2729.9999999999995
34.516807477, 2609.0
34.674370869, 2653.0
34.831934262, 2638.0
34.989497654, 2710.0
35.147061046, 2781.0
35.304624438, 2717.9999999999995
35.46218783, 2808.0000000000005
35.619751222, 2818.0
35.777314614, 2803.0
35.934878006, 2768.9999999999995
36.092441398, 2828.0000000000005
36.250004791, 2956.0
36.407568183, 2990.0
36.565131575, 3238.0
36.722694967, 3918.0
36.880258359, 6817.0
37.037821751, 9000.0
37.195385143, 4734.0
37.352948535, 3474.0
37.510511927, 3236.0000000000005
37.66807532, 3141.0000000000005
37.825638712, 3179.0
37.983202104, 3526.0000000000005
38.140765496, 3764.0
38.298328888, 3457.9999999999995
38.45589228, 3992.0
38.613455672, 7770.0
38.771019064, 6149.0
38.928582456, 3272.000000000001
39.086145849, 3159.999999999999
39.243709241, 2991.0
39.401272633, 3116.0
39.558836025, 3131.0
39.716399417, 3087.0
39.873962809, 2990.9999999999995
40.031526201, 2992.0
40.189089593, 2974.0
40.346652985, 2970.0
40.504216378, 2995.9999999999995
40.66177977, 3077.0000000000005
40.819343162, 2948.0
40.976906554, 3030.0
41.134469946, 3071.0
41.292033338, 3134.9999999999995
41.44959673, 3094.0
41.607160122, 3119.999999999999
41.764723514, 3115.0
41.922286907, 3073.9999999999995
42.079850299, 3198.0
42.237413691, 3506.0
42.394977083, 3265.0
42.552540475, 3264.0
42.710103867, 3142.0
42.867667259, 3248.0000000000005
43.025230651, 3136.0
43.182794043, 3313.0000000000005
43.340357436, 3265.0
43.497920828, 3581.0
43.65548422, 3396.9999999999995
43.813047612, 3519.0
43.970611004, 3730.0
44.128174396, 3757.9999999999995
44.285737788, 4163.999999999999
44.44330118, 5963.0
44.600864572, 12619.0
44.758427965, 18218.0
44.915991357, 12058.0
45.073554749, 6198.000000000001
45.231118141, 4068.0
45.388681533, 3625.9999999999995
45.546244925, 3522.0
45.703808317, 3438.0
45.861371709, 3402.9999999999995
46.018935101, 3451.0
46.176498494, 3398.0
46.334061886, 3236.0
46.491625278, 3340.0
46.64918867, 3274.0000000000005
46.806752062, 3357.0
46.964315454, 3422.9999999999995
47.121878846, 3533.0
47.279442238, 3477.0000000000005
47.43700563, 3388.0
47.594569023, 3310.9999999999995
47.752132415, 3326.0000000000005
47.909695807, 3343.0
48.067259199, 3480.9999999999995
48.224822591, 3536.9999999999995
48.382385983, 3455.0000000000005
48.539949375, 3596.000000000001
48.697512767, 4325.0
48.855076159, 5397.0
49.012639552, 4827.0
49.170202944, 3809.0
49.327766336, 3658.9999999999995
49.485329728, 3546.0
49.64289312, 3521.0
