10.0944817, 540.4386031187751
10.252045092, 446.3706399074872
10.409608484, 376.9789710911864
10.567171876, 276.5700204815512
10.724735268, 300.4960325058928
10.882298661, 171.1531698705512
11.039862053, 25.979659466043813
11.197425445, 133.4539935299399
11.354988837, 84.90682511404157
11.512552229, 44.54898679102189
11.670115621, 25.883531553161447
11.827679013, 105.28795887622982
11.985242405, 119.10779124891269
12.142805797, 191.65809243042895
12.30036919, 78.22494060255121
12.457932582, 19.066860414663097
12.615495974, 150.41620656005398
12.773059366, 46.480510480570956
12.930622758, 70.44378278771183
13.08818615, 64.46777540809126
13.245749542, 56.30679636594141
13.403312934, 18.240928810919286
13.560876326, 16.786897624871926
13.718439719, 29.305728458464728
13.876003111, 18.247550116240745
14.033566503, 8.440147122499184
14.191129895, 61.204632608176325
14.348693287, 50.15742979692004
14.506256679, 58.59359739480715
14.663820071, 13.048566314857453
14.821383463, 77.8032700978074
14.978946855, 30.98269565711962
15.136510248, 60.519735313398996
15.29407364, 21.547110711791902
15.451637032, 106.82840041955933
15.609200424, 140.69954854270327
15.766763816, 41.12597545681638
15.924327208, 78.1730381528323
16.0818906, 114.91118995709985
16.239453992, 71.41538897740247
16.397017384, 62.764533225796185
16.554580777, 61.04092195085832
16.712144169, 154.32974175122217
16.869707561, 108.71857895950961
17.027270953, 13.703045123183983
17.184834345, 64.15588542738988
17.342397737, 36.3874637754634
17.499961129, 59.084465476698824
17.657524521, 68.3399755996652
17.815087913, 63.247037249297136
17.972651306, 77.89832098258194
18.130214698, 106.38581428563339
18.28777809, 83.80053128127474
18.445341482, 338.23224114817276
18.602904874, 619.7692154717079
18.760468266, 2552.4979936884047
18.918031658, 3852.5031661521934
19.07559505, 824.8671743087762
19.233158442, 334.6701274649531
19.390721835, 219.98963564872975
19.548285227, 37.90065805660561
19.705848619, 190.4753666096949
19.863412011, 7.783024102274794
20.020975403, 165.88987648834882
20.178538795, 35.85905881690269
20.336102187, 31.75051434666966
20.493665579, 0.6209263778000604
20.651228971, 136.52366233823705
20.808792364, 78.50872967153555
20.966355756, 83.62274310542853
21.123919148, 127.90890278092411
21.28148254, 58.40698291732406
21.439045932, 55.15333049620676
21.596609324, 169.18087358036428
21.754172716, 97.51913883366797
21.911736108, 109.19427784228174
22.0692995, 186.22910181495536
22.226862893, 153.64312428863195
22.384426285, 243.45261137446505
22.541989677, 256.67063929156575
22.699553069, 363.30715864372905
22.857116461, 205.3690651677898
23.014679853, 36.860276552601135
23.172243245, 163.7818149515806
23.329806637, 112.13189484486065
23.487370029, 80.90601588790014
23.644933422, 136.09706043107144
23.802496814, 47.30460483118077
23.960060206, 17.311022919981042
24.117623598, 52.06346267195477
24.27518699, 435.802320679446
24.432750382, 515.8869477245898
24.590313774, 40.29678663739469
24.747877166, 42.00944714546495
24.905440558, 1.0008286074444186
25.063003951, 35.75475542145432
25.220567343, 50.28445143086719
25.378130735, 5.6167384821601445
25.535694127, 85.78130034152127
25.693257519, 122.80889673766796
25.850820911, 4.268765704298858
26.008384303, 20.419162644611788
26.165947695, 66.3909189744154
26.323511087, 30.804747707181377
26.48107448, 77.02804252401984
26.638637872, 2.0761999073874904
26.796201264, 19.91721432545455
26.953764656, 53.04302906547673
27.111328048, 22.664080439979443
27.26889144, 43.83037118705397
27.426454832, 121.56056017523224
27.584018224, 42.439763473084895
27.741581616, 6.862609311458073
27.899145009, 44.49976546887774
28.056708401, 3.4950940509152133
28.214271793, 6.09245155127428
28.371835185, 22.261885039435583
28.529398577, 46.025486443482805
28.686961969, 1.2026245967281284
28.844525361, 6.080232994398102
29.002088753, 121.10084007590194
29.159652145, 2.277821235722513
29.317215538, 10.761634845737717
29.47477893, 16.8013461993105
29.632342322, 91.01434755932132
29.789905714, 34.19156263426703
29.947469106, 143.71494377929776
30.105032498, 122.57099296088563
30.26259589, 35.25187643212848
30.420159282, 76.23670973420667
30.577722675, 6.029130694980267
30.735286067, 75.11981015502533
30.892849459, 103.50525036972249
31.050412851, 62.18406117314589
31.207976243, 59.15698364021955
31.365539635, 20.42690841673175
31.523103027, 39.99888864604873
31.680666419, 68.88014744542306
31.838229811, 59.0800798497512
31.995793204, 80.61024918351904
32.153356596, 66.48437809981988
32.310919988, 60.718333475189866
32.46848338, 53.66989379930601
32.626046772, 31.339785046948236
32.783610164, 143.23047507242882
32.941173556, 37.6435094600165
33.098736948, 146.01209212229878
33.25630034, 90.83082627042313
33.413863733, 10.797746949421708
33.571427125, 48.86600077159528
33.728990517, 87.65963221590209
33.886553909, 65.18559514054505
34.044117301, 17.63517851900542
34.201680693, 19.160340700516826
34.359244085, 38.429717203005566
34.516807477, 98.51552113403159
34.674370869, 70.63295708346413
34.831934262, 101.87903103489953
34.989497654, 46.209149804970366
35.147061046, 8.422198474596371
35.304624438, 70.93867468443932
35.46218783, 2.7552173826115904
35.619751222, 3.4485928223730298
35.777314614, 34.502161054479075
35.934878006, 84.35727015424345
36.092441398, 40.96557344640314
36.250004791, 71.72125730098924
36.407568183, 90.75138001563028
36.565131575, 324.1726252549415
36.722694967, 990.0323360786278
36.880258359, 3875.377203389595
37.037821751, 6045.253097623077
37.195385143, 1766.7048967536393
37.352948535, 494.776310772897
37.510511927, 245.50970284421055
37.66807532, 139.94590719474945
37.825638712, 168.12404435234203
37.983202104, 506.08133286773227
38.140765496, 735.852899060963
38.298328888, 422.47158400915214
38.45589228, 949.9677483011328
38.613455672, 4722.369074770599
38.771019064, 3096.7003693678125
38.928582456, 215.9833603836887
39.086145849, 101.23649629899592
39.243709241, 69.52525754561066
39.401272633, 54.709376624799916
39.558836025, 69.94778405544639
39.716399417, 27.193251941906055
39.873962809, 66.55523634978454
40.031526201, 62.3032070039626
40.189089593, 76.06090117112035
40.346652985, 74.84347991354298
40.504216378, 42.671228190287366
40.66177977, 45.430241982481675
40.819343162, 75.57020980662492
40.976906554, 15.290547540746047
41.134469946, 65.96971870739071
41.292033338, 140.41838632858708
41.44959673, 110.58131779872929
41.607160122, 148.39677510420734
41.764723514, 155.79632773253252
41.922286907, 127.7046692945296
42.079850299, 265.03943754827196
42.237413691, 586.7110394254851
42.394977083, 359.62247973229387
42.552540475, 372.6691952886613
42.710103867, 264.73889403215435
42.867667259, 384.7113998330169
43.025230651, 286.4585031954921
43.182794043, 476.84381838653644
43.340357436, 441.7226471877657
43.497920828, 769.9418494797719
43.65548422, 597.3397219990438
43.813047612, 729.7458842438064
43.970611004, 949.981172912172
44.128174396, 985.8575451045763
44.285737788, 1398.1779904336727
44.44330118, 3201.7364527426253
44.600864572, 9860.317761708488
44.758427965, 15459.69757473706
44.915991357, 9297.642329760434
45.073554749, 3432.90920910165
45.231118141, 1295.246115188027
45.388681533, 842.39165810548
45.546244925, 724.0751560741337
45.703808317, 622.0166486586095
45.861371709, 564.9269236627879
46.018935101, 586.5075579140248
46.176498494, 502.45097231196996
46.334061886, 304.44050294093904
46.491625278, 367.150485429127
46.64918867, 254.24635744452826
46.806752062, 284.3847763616359
46.964315454, 291.2137544177531
47.121878846, 335.3728110271768
47.279442238, 206.49314328590117
47.43700563, 37.197814841216314
47.594569023, 127.89803665674117
47.752132415, 209.18696976976935
47.909695807, 297.06899489888747
48.067259199, 272.9513037571596
48.224822591, 340.24798026772623
48.382385983, 555.3796892732498
48.539949375, 557.7733427383064
48.697512767, 17.13825692125829
48.855076159, 923.9167970227427
49.012639552, 177.1188577353314
49.170202944, 1029.7036544170114
49.327766336, 1381.0030590092356
49.485329728, 1708.2354171498737
49.64289312, 1960.8600259867526
