10.0944817, 390.754133203518
10.252045092, 310.1934646683221
10.409608484, 253.43043847983063
10.567171876, 164.81200537044788
10.724735268, 199.72967011263245
10.882298661, 80.61761332300375
11.039862053, 55.04913897396182
11.197425445, 61.243509950174484
11.354988837, 148.95300392342324
11.512552229, 101.05158563049918
11.670115621, 75.43111458017665
11.827679013, 148.43803120990924
11.985242405, 156.3878777177888
12.142805797, 223.56679364811862
12.30036919, 105.2329665285506
12.457932582, 41.61804174591089
12.615495974, 168.9284838368185
12.773059366, 61.34690141705505
12.930622758, 82.0333278667822
13.08818615, 73.12646197332651
13.245749542, 50.255131316691404
13.403312934, 21.98814069625223
13.560876326, 15.061978382393136
13.718439719, 29.340509039451717
13.876003111, 19.798185693158302
14.033566503, 5.599552779487567
14.191129895, 65.12645867688116
14.348693287, 54.96817015905981
14.506256679, 53.070590552073554
14.663820071, 6.9749917996814474
14.821383463, 84.27996101461758
14.978946855, 37.72861669988197
15.136510248, 67.41390135438996
15.29407364, 14.613429032004206
15.451637032, 113.70449701078178
15.609200424, 147.4319788152643
15.766763816, 47.63908632120001
15.924327208, 84.40103084048314
16.0818906, 120.7975635107723
16.239453992, 76.91240080511488
16.397017384, 67.83267648959009
16.554580777, 65.64841954415897
16.712144169, 158.45205664029345
16.869707561, 112.337940620273
17.027270953, 10.59809838621004
17.184834345, 66.7408223192615
17.342397737, 38.45223600346071
17.499961129, 60.63394679810153
17.657524521, 69.38367171536083
17.815087913, 63.798703825857956
17.972651306, 77.97559607579024
18.130214698, 106.0098649385036
18.28777809, 82.99571401708818
18.445341482, 337.02577614193433
18.602904874, 618.1908741418738
18.760468266, 2550.5797994579043
18.918031658, 3850.2791081373725
19.07559505, 822.3729336855031
19.233158442, 331.9428162658878
19.390721835, 217.0675477408222
19.548285227, 34.82303205814969
19.705848619, 187.28216049127514
19.863412011, 4.514701228530612
20.020975403, 162.58720285631716
20.178538795, 32.56291123958363
20.336102187, 28.501699336455204
20.493665579, 2.539990510471398
20.651228971, 133.49080771466834
20.808792364, 75.64354956158786
20.966355756, 80.96415709781286
21.123919148, 125.49500651663402
21.28148254, 56.27492603956489
21.439045932, 53.33920359016338
21.596609324, 167.71960386617866
21.754172716, 96.44439437250549
21.911736108, 108.53838000919495
22.0692995, 186.0229458152171
22.226862893, 153.91610746877268
22.384426285, 244.23256908231997
22.541989677, 257.9837880842533
22.699553069, 365.1780465761258
22.857116461, 207.82052894946537
23.014679853, 39.91340532654431
23.172243245, 167.4559204865509
23.329806637, 116.44448789508897
23.487370029, 85.87278850300936
23.644933422, 141.7318739930779
23.802496814, 40.9897260817379
23.960060206, 10.305893057826324
24.117623598, 59.76719513130956
24.27518699, 444.2111815014796
24.432750382, 525.0056503099477
24.590313774, 50.12824978804565
24.747877166, 52.554817032360006
24.905440558, 12.259504745656159
25.063003951, 23.78509041639336
25.220567343, 37.6077985137963
25.378130735, 7.761254559096415
25.535694127, 71.70922189574048
25.693257519, 108.05155165211181
25.850820911, 19.701040303945774
26.008384303, 36.51455954571429
26.165947695, 49.64562638234929
26.323511087, 48.1853428773029
26.48107448, 59.028049437343725
26.638637872, 20.678431479274877
26.796201264, 0.7310999899200397
26.953764656, 33.29252400822588
27.111328048, 42.95840915318695
27.26889144, 23.01379846049531
27.426454832, 100.24427221009682
27.584018224, 64.23235304807895
27.741581616, 15.382048313345877
27.899145009, 67.17150310969737
28.056708401, 26.568234978753026
28.214271793, 29.540696363095776
28.371835185, 46.05837772405357
28.529398577, 21.908092548983404
28.686961969, 25.61314815352671
28.844525361, 18.595289165183203
29.002088753, 146.01293517719023
29.159652145, 22.84219080841285
29.317215538, 36.060741016917746
29.47477893, 8.647927116049686
29.632342322, 116.58481855007994
29.789905714, 59.8542798999988
29.947469106, 169.4410333593405
30.105032498, 148.33171636941552
30.26259589, 9.485065566070261
30.420159282, 101.98130892479094
30.577722675, 31.7235198252165
30.735286067, 100.73634341781144
30.892849459, 129.0166845970234
31.050412851, 87.5636040330719
31.207976243, 84.37833990677609
31.365539635, 45.46432424367231
31.523103027, 64.82719378928596
31.680666419, 93.47479533747537
31.838229811, 83.4171855278546
31.995793204, 104.66662495635683
32.153356596, 90.23756696173223
32.310919988, 84.14664019457996
32.46848338, 30.58737394331547
32.626046772, 54.05643018821138
32.783610164, 120.89895169787633
32.941173556, 59.57152634521481
33.098736948, 124.50508504136815
33.25630034, 111.9002182368713
33.413863733, 9.818336760930833
33.571427125, 28.71799456892768
33.728990517, 107.32572476548376
33.886553909, 46.01431244653941
34.044117301, 36.29969946402707
34.201680693, 37.30709432110598
34.359244085, 56.048643843925674
34.516807477, 81.43353792326525
34.674370869, 54.09609553721384
34.831934262, 85.89453845955722
34.989497654, 30.783351987454807
35.147061046, 23.283885640805238
35.304624438, 56.64561780638178
35.46218783, 16.476004925585585
35.619751222, 9.697149359766627
35.777314614, 21.933396662425366
35.934878006, 72.36659355979646
36.092441398, 29.553295036792406
36.250004791, 82.55560236790916
36.407568183, 101.00900600197201
36.565131575, 333.8554687258438
36.722694967, 999.1430275355815
36.880258359, 3883.9190378827625
37.037821751, 6053.230004388097
37.195385143, 1774.1214080761129
37.352948535, 501.63753018424904
37.510511927, 251.82127286292962
37.66807532, 145.71397672734747
37.825638712, 173.3552359346213
37.983202104, 510.78270994238846
38.140765496, 740.0319334556552
38.298328888, 426.1361238139507
38.45589228, 953.1259863782616
38.613455672, 4725.029518031428
38.771019064, 3098.8718090879265
38.928582456, 217.67484381207032
39.086145849, 102.45729963030317
39.243709241, 68.76565436010424
39.401272633, 55.01744006066292
39.558836025, 69.8141275155067
39.716399417, 26.62783595905057
39.873962809, 67.5423263497214
40.031526201, 63.70177353445615
40.189089593, 77.86064428449026
40.346652985, 77.034003120134
40.504216378, 45.24204054083384
40.66177977, 42.48972803543438
40.819343162, 78.86973459707224
40.976906554, 11.64281740890874
41.134469946, 61.984720137756085
41.292033338, 136.10720978458994
41.44959673, 105.95523537615372
41.607160122, 143.46727478510002
41.764723514, 150.57515429526393
41.922286907, 122.20387213645154
42.079850299, 259.2714258721535
42.237413691, 580.6886451719474
42.394977083, 353.3590287187981
42.552540475, 366.1785868263687
42.710103867, 258.03568956370873
42.867667259, 377.8109210051043
43.025230651, 279.3769397250435
43.182794043, 469.5983462683362
43.340357436, 434.33155763786635
43.497920828, 762.4246890897193
43.65548422, 589.7174446101853
43.813047612, 722.0410149509698
43.970611004, 942.2179848297237
44.128174396, 978.0622491755639
44.285737788, 1390.3789390358434
44.44330118, 3193.964357475328
44.600864572, 9852.605925903772
44.758427965, 15452.082141258885
44.915991357, 9290.162544656618
45.073554749, 3425.607701679619
45.231118141, 1288.1691949229862
45.388681533, 835.5896293794358
45.546244925, 717.6026506949856
45.703808317, 615.9329774105136
45.861371709, 559.2964470957231
46.018935101, 581.4000771208521
46.176498494, 497.94214032600576
46.334061886, 300.6122573459288
46.491625278, 364.09150298914756
46.64918867, 252.0525311097881
46.806752062, 283.1597157528886
46.964315454, 291.06931003964564
47.121878846, 336.4296231865301
47.279442238, 208.88121631994727
47.43700563, 41.057117476695566
47.594569023, 122.41694435630052
47.752132415, 201.9222817557311
47.909695807, 287.84697631966264
48.067259199, 261.5855791165086
48.224822591, 326.5387918567867
48.382385983, 539.113124852578
48.539949375, 538.7205319842906
48.697512767, 39.22197813616367
48.855076159, 949.2927553725021
49.012639552, 206.0659450374078
49.170202944, 996.888044063613
49.327766336, 1344.0020564175938
49.485329728, 1666.7116690457915
49.64289312, 1914.4546486504987
